#! FIELDS time q6_mean q6_avg_mean
 0.000000 0.639292 0.639292
 0.050000 0.637963 0.636545
 0.100000 0.634355 0.629041
 0.150000 0.629565 0.618297
 0.200000 0.628430 0.615977
 0.250000 0.627835 0.614590
 0.300000 0.622169 0.603393
 0.350000 0.620539 0.599663
 0.400000 0.619471 0.596203
 0.450000 0.608845 0.574993
 0.500000 0.604367 0.564838
 0.550000 0.596152 0.549732
 0.600000 0.591949 0.539389
 0.650000 0.586214 0.529300
 0.700000 0.585464 0.528535
 0.750000 0.595779 0.546046
 0.800000 0.600185 0.557124
 0.850000 0.604293 0.562755
 0.900000 0.600482 0.556897
 0.950000 0.597242 0.550526
 1.000000 0.593540 0.543965
 1.050000 0.590579 0.537387
 1.100000 0.595109 0.545433
 1.150000 0.599341 0.553524
 1.200000 0.596034 0.548095
 1.250000 0.599694 0.556049
 1.300000 0.598956 0.553974
 1.350000 0.595383 0.546973
 1.400000 0.593321 0.545596
 1.450000 0.593430 0.543422
 1.500000 0.597314 0.550855
 1.550000 0.595409 0.547795
 1.600000 0.602563 0.559829
 1.650000 0.600891 0.558787
 1.700000 0.597808 0.549694
 1.750000 0.597411 0.550155
 1.800000 0.593892 0.545853
 1.850000 0.597162 0.550558
 1.900000 0.592508 0.542060
 1.950000 0.600631 0.558316
 2.000000 0.599942 0.555626
 2.050000 0.593630 0.544539
 2.100000 0.593766 0.544277
 2.150000 0.592362 0.540287
 2.200000 0.594617 0.545047
 2.250000 0.597415 0.551962
 2.300000 0.593972 0.545986
 2.350000 0.600872 0.558893
 2.400000 0.598632 0.555177
 2.450000 0.592429 0.542518
 2.500000 0.592151 0.542630
 2.550000 0.596805 0.548170
 2.600000 0.595640 0.546671
 2.650000 0.595014 0.544800
 2.700000 0.593479 0.543839
 2.750000 0.600138 0.556653
 2.800000 0.598334 0.551819
 2.850000 0.591806 0.540274
 2.900000 0.594789 0.544569
 2.950000 0.592916 0.540972
 3.000000 0.596826 0.548013
 3.050000 0.595763 0.547792
 3.100000 0.597651 0.551830
 3.150000 0.595312 0.546295
 3.200000 0.597965 0.550932
 3.250000 0.597155 0.550920
 3.300000 0.594554 0.544652
 3.350000 0.589215 0.534662
 3.400000 0.590883 0.538505
 3.450000 0.594432 0.546742
 3.500000 0.598508 0.554458
 3.550000 0.596161 0.548999
 3.600000 0.595610 0.548090
 3.650000 0.592229 0.542388
 3.700000 0.594040 0.544076
 3.750000 0.590172 0.537018
 3.800000 0.593531 0.541776
 3.850000 0.595902 0.547329
 3.900000 0.594761 0.544935
 3.950000 0.595611 0.548490
 4.000000 0.595994 0.547795
 4.050000 0.597651 0.550325
 4.100000 0.599840 0.553360
 4.150000 0.595247 0.548874
 4.200000 0.592130 0.542785
 4.250000 0.592736 0.543387
 4.300000 0.601384 0.557578
 4.350000 0.592830 0.542314
 4.400000 0.594626 0.545023
 4.450000 0.593753 0.543883
 4.500000 0.597145 0.547691
 4.550000 0.598566 0.549754
 4.600000 0.593970 0.545423
 4.650000 0.597255 0.551407
 4.700000 0.596581 0.550037
 4.750000 0.598156 0.552424
 4.800000 0.596830 0.550782
 4.850000 0.594001 0.545887
 4.900000 0.595559 0.546599
 4.950000 0.596362 0.550097
 5.000000 0.596550 0.547573
 5.050000 0.594700 0.545666
 5.100000 0.597336 0.551497
 5.150000 0.591484 0.540879
 5.200000 0.595578 0.545762
 5.250000 0.598410 0.553806
 5.300000 0.592528 0.540858
 5.350000 0.594349 0.543227
 5.400000 0.595865 0.546492
 5.450000 0.594818 0.544723
 5.500000 0.593741 0.544616
 5.550000 0.595275 0.545992
 5.600000 0.593756 0.541793
 5.650000 0.592863 0.540481
 5.700000 0.597668 0.552308
 5.750000 0.595600 0.547181
 5.800000 0.591949 0.538923
 5.850000 0.593771 0.543664
 5.900000 0.595020 0.546819
 5.950000 0.588950 0.534226
 6.000000 0.595572 0.546555
 6.050000 0.598972 0.553500
 6.100000 0.597306 0.549627
 6.150000 0.596957 0.549994
 6.200000 0.597031 0.548968
 6.250000 0.593318 0.542103
 6.300000 0.593300 0.544023
 6.350000 0.594693 0.545844
 6.400000 0.595759 0.547114
 6.450000 0.597894 0.550225
 6.500000 0.594672 0.547099
 6.550000 0.597940 0.552479
 6.600000 0.597603 0.549943
 6.650000 0.597696 0.551101
 6.700000 0.596328 0.550147
 6.750000 0.594889 0.546597
 6.800000 0.597970 0.553456
 6.850000 0.595455 0.547644
 6.900000 0.595508 0.547499
 6.950000 0.594967 0.548579
 7.000000 0.595377 0.545612
 7.050000 0.594513 0.547142
 7.100000 0.595929 0.550785
 7.150000 0.591740 0.543315
 7.200000 0.597906 0.551739
 7.250000 0.595505 0.545923
 7.300000 0.593267 0.542815
 7.350000 0.600152 0.556968
 7.400000 0.593353 0.543886
 7.450000 0.595066 0.545431
 7.500000 0.600885 0.558010
 7.550000 0.597851 0.550966
 7.600000 0.592992 0.543010
 7.650000 0.596352 0.548285
 7.700000 0.593970 0.543096
 7.750000 0.594543 0.546357
 7.800000 0.597626 0.551749
 7.850000 0.593545 0.545765
 7.900000 0.596236 0.549250
 7.950000 0.600227 0.555935
 8.000000 0.596568 0.548848
 8.050000 0.599308 0.552888
 8.100000 0.596715 0.549349
 8.150000 0.596250 0.549245
 8.200000 0.595949 0.547125
 8.250000 0.595778 0.546657
 8.300000 0.595972 0.547657
 8.350000 0.594232 0.545190
 8.400000 0.595003 0.545880
 8.450000 0.595786 0.547585
 8.500000 0.595238 0.547477
 8.550000 0.592358 0.543197
 8.600000 0.592080 0.541321
 8.650000 0.594354 0.547026
 8.700000 0.598678 0.554550
 8.750000 0.595098 0.545545
 8.800000 0.593614 0.543728
 8.850000 0.598836 0.553511
 8.900000 0.596925 0.549068
 8.950000 0.592395 0.541486
 9.000000 0.593135 0.541771
 9.050000 0.595390 0.547921
 9.100000 0.596425 0.550913
 9.150000 0.594905 0.547730
 9.200000 0.595236 0.543216
 9.250000 0.596890 0.549941
 9.300000 0.596122 0.548844
 9.350000 0.597367 0.551368
 9.400000 0.597474 0.552529
 9.450000 0.594556 0.546596
 9.500000 0.593150 0.542870
 9.550000 0.594524 0.546416
 9.600000 0.595656 0.547199
 9.650000 0.593048 0.544290
 9.700000 0.594238 0.547322
 9.750000 0.595914 0.549195
 9.800000 0.598590 0.554181
 9.850000 0.595562 0.547010
 9.900000 0.598241 0.550397
 9.950000 0.598989 0.554756
 10.000000 0.601027 0.557292
 10.050000 0.593718 0.544328
 10.100000 0.597072 0.549315
 10.150000 0.596966 0.551513
 10.200000 0.597134 0.550624
 10.250000 0.600539 0.557828
 10.300000 0.595031 0.546458
 10.350000 0.593423 0.543816
 10.400000 0.594772 0.546700
 10.450000 0.596294 0.551688
 10.500000 0.597770 0.551302
 10.550000 0.599780 0.555731
 10.600000 0.597248 0.549284
 10.650000 0.597125 0.551169
 10.700000 0.595895 0.549400
 10.750000 0.594037 0.545569
 10.800000 0.595469 0.549289
 10.850000 0.600137 0.557370
 10.900000 0.596015 0.549733
 10.950000 0.598669 0.552069
 11.000000 0.594462 0.544695
 11.050000 0.597324 0.548739
 11.100000 0.596831 0.550727
 11.150000 0.590755 0.540054
 11.200000 0.592596 0.542626
 11.250000 0.594361 0.544765
 11.300000 0.592210 0.541020
 11.350000 0.598875 0.552044
 11.400000 0.597095 0.550839
 11.450000 0.595410 0.547100
 11.500000 0.595338 0.548635
 11.550000 0.595587 0.547561
 11.600000 0.597982 0.552065
 11.650000 0.595340 0.547239
 11.700000 0.594230 0.544524
 11.750000 0.591672 0.540199
 11.800000 0.594481 0.545395
 11.850000 0.596372 0.551035
 11.900000 0.594847 0.547308
 11.950000 0.595107 0.546473
 12.000000 0.594175 0.546351
 12.050000 0.596200 0.549353
 12.100000 0.595798 0.548673
 12.150000 0.595522 0.548179
 12.200000 0.599615 0.556774
 12.250000 0.604372 0.566632
 12.300000 0.596295 0.551074
 12.350000 0.594285 0.546370
 12.400000 0.594856 0.546661
 12.450000 0.593505 0.545808
 12.500000 0.598572 0.553643
 12.550000 0.594646 0.547856
 12.600000 0.596625 0.549550
 12.650000 0.597584 0.551929
 12.700000 0.594051 0.545405
 12.750000 0.593525 0.543974
 12.800000 0.591823 0.542258
 12.850000 0.597612 0.554502
 12.900000 0.597414 0.551102
 12.950000 0.594930 0.546688
 13.000000 0.596776 0.549264
 13.050000 0.594176 0.544659
 13.100000 0.593833 0.546349
 13.150000 0.592902 0.542463
 13.200000 0.597005 0.550325
 13.250000 0.596254 0.548354
 13.300000 0.596714 0.547696
 13.350000 0.595953 0.547087
 13.400000 0.595614 0.546998
 13.450000 0.595315 0.546286
 13.500000 0.591372 0.541140
 13.550000 0.597009 0.550011
 13.600000 0.598141 0.553070
 13.650000 0.591487 0.540868
 13.700000 0.595381 0.547577
 13.750000 0.595794 0.548648
 13.800000 0.596227 0.547646
 13.850000 0.596293 0.551038
 13.900000 0.594800 0.547426
 13.950000 0.597460 0.550674
 14.000000 0.599100 0.553204
 14.050000 0.595581 0.547535
 14.100000 0.594692 0.546430
 14.150000 0.598981 0.554142
 14.200000 0.600171 0.556245
 14.250000 0.597603 0.551467
 14.300000 0.595938 0.547829
 14.350000 0.596588 0.549555
 14.400000 0.596642 0.549510
 14.450000 0.599034 0.553717
 14.500000 0.597792 0.552142
 14.550000 0.591918 0.542858
 14.600000 0.596811 0.550767
 14.650000 0.594286 0.542969
 14.700000 0.591056 0.537175
 14.750000 0.596030 0.546859
 14.800000 0.597872 0.552629
 14.850000 0.596405 0.546678
 14.900000 0.596155 0.545653
 14.950000 0.596925 0.548015
 15.000000 0.596697 0.548607
 15.050000 0.593597 0.544750
 15.100000 0.596686 0.546313
 15.150000 0.593451 0.543029
 15.200000 0.591773 0.540218
 15.250000 0.599152 0.555061
 15.300000 0.597301 0.551780
 15.350000 0.592843 0.540908
 15.400000 0.591041 0.538320
 15.450000 0.593405 0.543559
 15.500000 0.591986 0.542666
 15.550000 0.597894 0.550084
 15.600000 0.601038 0.556218
 15.650000 0.595750 0.548005
 15.700000 0.596115 0.549278
 15.750000 0.595995 0.549634
 15.800000 0.594879 0.545341
 15.850000 0.596262 0.548765
 15.900000 0.597550 0.552918
 15.950000 0.598291 0.552676
 16.000000 0.592913 0.541530
 16.050000 0.595225 0.547057
 16.100000 0.596069 0.548770
 16.150000 0.594926 0.546889
 16.200000 0.600224 0.556782
 16.250000 0.596904 0.551072
 16.300000 0.598413 0.552743
 16.350000 0.595470 0.549267
 16.400000 0.593969 0.545430
 16.450000 0.595188 0.546257
 16.500000 0.596140 0.549130
 16.550000 0.591734 0.540578
 16.600000 0.595863 0.549217
 16.650000 0.600082 0.554916
 16.700000 0.598197 0.551797
 16.750000 0.591016 0.539817
 16.800000 0.594734 0.545256
 16.850000 0.593247 0.543782
 16.900000 0.593177 0.544487
 16.950000 0.600410 0.556951
 17.000000 0.594149 0.546405
 17.050000 0.596523 0.548957
 17.100000 0.596966 0.548936
 17.150000 0.595958 0.549139
 17.200000 0.597607 0.549985
 17.250000 0.595952 0.546997
 17.300000 0.596927 0.550466
 17.350000 0.597895 0.551982
 17.400000 0.598944 0.552081
 17.450000 0.592854 0.542167
 17.500000 0.599539 0.554585
 17.550000 0.593809 0.543920
 17.600000 0.596322 0.547570
 17.650000 0.597409 0.549673
 17.700000 0.595144 0.546136
 17.750000 0.596694 0.551112
 17.800000 0.594897 0.545587
 17.850000 0.598882 0.554621
 17.900000 0.599497 0.557128
 17.950000 0.598787 0.552725
 18.000000 0.594460 0.545096
 18.050000 0.593499 0.542469
 18.100000 0.596404 0.547374
 18.150000 0.597324 0.551811
 18.200000 0.594150 0.545077
 18.250000 0.596979 0.549009
 18.300000 0.596061 0.549780
 18.350000 0.597223 0.550190
 18.400000 0.593989 0.542217
 18.450000 0.593354 0.543451
 18.500000 0.598076 0.550527
 18.550000 0.595858 0.548348
 18.600000 0.596428 0.548132
 18.650000 0.593178 0.540601
 18.700000 0.593182 0.542023
 18.750000 0.592843 0.541033
 18.800000 0.592525 0.540375
 18.850000 0.596710 0.548867
 18.900000 0.597518 0.552113
 18.950000 0.597665 0.552433
 19.000000 0.596403 0.548567
 19.050000 0.598278 0.551072
 19.100000 0.598561 0.551101
 19.150000 0.597830 0.552473
 19.200000 0.597832 0.550884
 19.250000 0.595102 0.546939
 19.300000 0.599538 0.554697
 19.350000 0.599927 0.557108
 19.400000 0.596636 0.549805
 19.450000 0.594294 0.546709
 19.500000 0.596175 0.550673
 19.550000 0.594781 0.546118
 19.600000 0.597105 0.552502
 19.650000 0.599215 0.556953
 19.700000 0.595303 0.546806
 19.750000 0.595251 0.548546
 19.800000 0.597430 0.551657
 19.850000 0.593135 0.542157
 19.900000 0.599012 0.554502
 19.950000 0.594897 0.547603
 20.000000 0.598112 0.550724
 20.050000 0.593122 0.541902
 20.100000 0.592006 0.538849
 20.150000 0.590195 0.536903
 20.200000 0.594109 0.541959
 20.250000 0.591811 0.541540
 20.300000 0.595228 0.547115
 20.350000 0.595475 0.546589
 20.400000 0.595654 0.546237
 20.450000 0.594539 0.544745
 20.500000 0.595085 0.547235
 20.550000 0.597436 0.549493
 20.600000 0.596703 0.550236
 20.650000 0.593072 0.541375
 20.700000 0.596182 0.548807
 20.750000 0.594974 0.547290
 20.800000 0.592547 0.544030
 20.850000 0.595550 0.546625
 20.900000 0.597971 0.553550
 20.950000 0.595575 0.549584
 21.000000 0.598735 0.551937
 21.050000 0.597857 0.550950
 21.100000 0.595345 0.547424
 21.150000 0.595572 0.548812
 21.200000 0.595284 0.548372
 21.250000 0.593154 0.544764
 21.300000 0.592863 0.543192
 21.350000 0.597169 0.550757
 21.400000 0.600984 0.558066
 21.450000 0.594131 0.544944
 21.500000 0.595796 0.548839
 21.550000 0.599834 0.554772
 21.600000 0.598243 0.551136
 21.650000 0.594174 0.544817
 21.700000 0.596989 0.550455
 21.750000 0.593250 0.543693
 21.800000 0.599949 0.555893
 21.850000 0.596599 0.550794
 21.900000 0.597678 0.552019
 21.950000 0.596366 0.549648
 22.000000 0.593656 0.543742
 22.050000 0.595956 0.545717
 22.100000 0.593965 0.544081
 22.150000 0.591143 0.539481
 22.200000 0.595653 0.546373
 22.250000 0.597338 0.552084
 22.300000 0.591921 0.541441
 22.350000 0.594887 0.546017
 22.400000 0.593601 0.542632
 22.450000 0.597447 0.551764
 22.500000 0.598675 0.552962
 22.550000 0.592836 0.540002
 22.600000 0.591253 0.541106
 22.650000 0.595862 0.549583
 22.700000 0.596317 0.549687
 22.750000 0.593524 0.544109
 22.800000 0.598085 0.551281
 22.850000 0.599024 0.552655
 22.900000 0.599754 0.555260
 22.950000 0.595231 0.547031
 23.000000 0.599066 0.555537
 23.050000 0.599844 0.556282
 23.100000 0.595824 0.549000
 23.150000 0.596853 0.549602
 23.200000 0.595080 0.548429
 23.250000 0.594472 0.545820
 23.300000 0.592833 0.541153
 23.350000 0.596733 0.549643
 23.400000 0.595081 0.546902
 23.450000 0.598178 0.553979
 23.500000 0.595791 0.548385
 23.550000 0.596097 0.547877
 23.600000 0.595624 0.546496
 23.650000 0.595390 0.546728
 23.700000 0.598039 0.552422
 23.750000 0.594886 0.545400
 23.800000 0.596949 0.550796
 23.850000 0.596655 0.549368
 23.900000 0.595308 0.547861
 23.950000 0.593700 0.545259
 24.000000 0.593889 0.542844
 24.050000 0.598731 0.552639
 24.100000 0.596422 0.550725
 24.150000 0.596041 0.549551
 24.200000 0.596359 0.549876
 24.250000 0.595971 0.550354
 24.300000 0.593785 0.545617
 24.350000 0.591248 0.539139
 24.400000 0.595591 0.548554
 24.450000 0.597797 0.553143
 24.500000 0.595267 0.547928
 24.550000 0.596074 0.549713
 24.600000 0.598004 0.553922
 24.650000 0.596338 0.549543
 24.700000 0.594005 0.543424
 24.750000 0.595714 0.547928
 24.800000 0.595715 0.550084
 24.850000 0.600858 0.558661
 24.900000 0.594337 0.546396
 24.950000 0.596840 0.551710
 25.000000 0.600762 0.558619
